Sample	
Comments	
Filename	C:\Windmax\Data\USERS\MSE\KYUBUM~1\NiTi_082812_42deg.raw
Goniometer	Ultima IV In-plane
Attachment	Thin Film Att.
ScanningMode	Beta
ScanningType	Continuos Scanning
X-Ray	40kV/44mA
Attenuator	open
DivSlit	1.0mm
SctSlit	2.0mm
RecSlit	2.0mm
Attenuator	
Start	0
Stop	360
Step	3
Speed	180
Offset	0
0	12
3	9
6	7
9	7
12	21
15	8
18	4
21	5
24	13
27	9
30	8
33	9
36	9
39	3
42	8
45	6
48	11
51	7
54	10
57	7
60	10
63	7
66	7
69	5
72	8
75	10
78	8
81	7
84	13
87	8
90	8
93	8
96	4
99	13
102	11
105	5
108	7
111	11
114	9
117	6
120	11
123	14
126	9
129	10
132	10
135	9
138	9
141	5
144	13
147	14
150	14
153	10
156	5
159	11
162	13
165	11
168	8
171	8
174	13
177	7
180	9
183	6
186	6
189	9
192	5
195	11
198	8
201	14
204	8
207	9
210	4
213	8
216	7
219	11
222	7
225	3
228	4
231	5
234	6
237	8
240	9
243	4
246	10
249	9
252	8
255	14
258	9
261	9
264	11
267	7
270	9
273	7
276	9
279	7
282	12
285	8
288	8
291	9
294	9
297	9
300	8
303	7
306	9
309	6
312	7
315	12
318	10
321	8
324	10
327	7
330	8
333	11
336	4
339	9
342	8
345	11
348	12
351	9
354	7
357	6
360	12
X-Ray	40kV/44mA
Attenuator	open
DivSlit	1.0mm
SctSlit	2.0mm
RecSlit	2.0mm
Attenuator	
Start	0
Stop	360
Step	3
Speed	180
Offset	0
0	29
3	38
6	42
9	35
12	40
15	31
18	36
21	44
24	44
27	33
30	38
33	38
36	36
39	40
42	39
45	26
48	41
51	32
54	44
57	41
60	38
63	50
66	36
69	61
72	40
75	31
78	55
81	56
84	44
87	47
90	65
93	48
96	54
99	53
102	53
105	72
108	52
111	57
114	51
117	48
120	42
123	47
126	74
129	51
132	65
135	53
138	59
141	61
144	60
147	50
150	42
153	67
156	62
159	51
162	54
165	66
168	55
171	48
174	53
177	29
180	47
183	58
186	42
189	50
192	42
195	49
198	41
201	55
204	40
207	57
210	52
213	55
216	60
219	48
222	46
225	38
228	47
231	48
234	42
237	39
240	28
243	40
246	30
249	35
252	45
255	46
258	42
261	46
264	42
267	53
270	62
273	55
276	49
279	45
282	53
285	37
288	43
291	30
294	26
297	38
300	38
303	40
306	43
309	33
312	42
315	34
318	42
321	40
324	38
327	33
330	26
333	46
336	36
339	44
342	38
345	44
348	28
351	37
354	38
357	35
360	29
X-Ray	40kV/44mA
Attenuator	open
DivSlit	1.0mm
SctSlit	2.0mm
RecSlit	2.0mm
Attenuator	
Start	0
Stop	360
Step	3
Speed	180
Offset	0
0	67
3	49
6	55
9	61
12	63
15	51
18	59
21	68
24	66
27	51
30	45
33	65
36	64
39	59
42	55
45	53
48	47
51	54
54	47
57	57
60	52
63	66
66	49
69	54
72	55
75	44
78	57
81	61
84	64
87	73
90	56
93	54
96	54
99	66
102	68
105	58
108	65
111	68
114	57
117	58
120	72
123	62
126	68
129	56
132	63
135	73
138	66
141	84
144	71
147	87
150	74
153	64
156	78
159	73
162	67
165	69
168	68
171	80
174	64
177	55
180	59
183	50
186	61
189	58
192	67
195	69
198	76
201	76
204	83
207	82
210	70
213	96
216	84
219	78
222	67
225	75
228	69
231	69
234	60
237	61
240	70
243	64
246	51
249	83
252	74
255	73
258	92
261	74
264	79
267	71
270	94
273	78
276	88
279	80
282	69
285	89
288	69
291	62
294	72
297	59
300	47
303	57
306	65
309	61
312	66
315	64
318	60
321	64
324	75
327	89
330	57
333	55
336	72
339	76
342	62
345	67
348	59
351	59
354	52
357	53
360	49
X-Ray	40kV/44mA
Attenuator	open
DivSlit	1.0mm
SctSlit	2.0mm
RecSlit	2.0mm
Attenuator	
Start	0
Stop	360
Step	3
Speed	180
Offset	0
0	57
3	62
6	42
9	65
12	69
15	67
18	73
21	54
24	66
27	72
30	79
33	72
36	81
39	72
42	59
45	59
48	78
51	66
54	62
57	63
60	64
63	41
66	59
69	61
72	66
75	61
78	58
81	59
84	67
87	66
90	68
93	60
96	59
99	63
102	55
105	60
108	68
111	60
114	72
117	61
120	57
123	56
126	60
129	65
132	54
135	68
138	59
141	80
144	73
147	62
150	84
153	75
156	68
159	68
162	75
165	77
168	63
171	65
174	71
177	59
180	65
183	58
186	72
189	62
192	82
195	80
198	78
201	66
204	81
207	90
210	81
213	67
216	77
219	75
222	73
225	78
228	81
231	70
234	67
237	67
240	68
243	55
246	60
249	76
252	72
255	76
258	76
261	74
264	87
267	93
270	97
273	107
276	86
279	85
282	80
285	80
288	75
291	64
294	58
297	70
300	73
303	58
306	85
309	63
312	67
315	62
318	72
321	54
324	82
327	78
330	68
333	81
336	87
339	79
342	80
345	72
348	81
351	52
354	60
357	49
360	59
X-Ray	40kV/44mA
Attenuator	open
DivSlit	1.0mm
SctSlit	2.0mm
RecSlit	2.0mm
Attenuator	
Start	0
Stop	360
Step	3
Speed	180
Offset	0
0	60
3	72
6	61
9	63
12	61
15	59
18	65
21	57
24	69
27	71
30	70
33	58
36	56
39	75
42	68
45	47
48	67
51	60
54	62
57	56
60	67
63	64
66	55
69	53
72	58
75	47
78	65
81	60
84	57
87	78
90	40
93	67
96	59
99	61
102	63
105	69
108	63
111	57
114	61
117	59
120	64
123	57
126	64
129	61
132	58
135	53
138	72
141	63
144	84
147	72
150	48
153	75
156	82
159	65
162	62
165	62
168	61
171	67
174	61
177	56
180	66
183	66
186	49
189	56
192	69
195	63
198	65
201	74
204	60
207	69
210	76
213	93
216	66
219	57
222	73
225	74
228	69
231	61
234	77
237	63
240	58
243	80
246	63
249	81
252	59
255	77
258	69
261	84
264	66
267	76
270	62
273	85
276	79
279	73
282	83
285	88
288	68
291	72
294	71
297	75
300	64
303	67
306	64
309	84
312	64
315	58
318	47
321	60
324	76
327	83
330	91
333	76
336	65
339	69
342	72
345	58
348	72
351	70
354	57
357	60
360	64
X-Ray	40kV/44mA
Attenuator	open
DivSlit	1.0mm
SctSlit	2.0mm
RecSlit	2.0mm
Attenuator	
Start	0
Stop	360
Step	3
Speed	180
Offset	0
0	76
3	59
6	53
9	54
12	62
15	71
18	66
21	53
24	72
27	72
30	70
33	76
36	58
39	66
42	74
45	71
48	67
51	49
54	56
57	52
60	49
63	58
66	49
69	50
72	54
75	44
78	58
81	54
84	64
87	57
90	60
93	49
96	55
99	52
102	57
105	54
108	62
111	53
114	48
117	58
120	60
123	65
126	58
129	67
132	69
135	70
138	64
141	77
144	63
147	70
150	74
153	70
156	59
159	81
162	82
165	56
168	51
171	57
174	59
177	67
180	61
183	54
186	83
189	57
192	59
195	65
198	66
201	69
204	70
207	69
210	73
213	69
216	81
219	66
222	70
225	79
228	74
231	50
234	71
237	82
240	67
243	59
246	73
249	70
252	62
255	61
258	63
261	60
264	62
267	68
270	69
273	61
276	61
279	63
282	47
285	68
288	65
291	69
294	61
297	70
300	59
303	56
306	62
309	70
312	55
315	48
318	54
321	84
324	72
327	73
330	74
333	71
336	77
339	56
342	51
345	52
348	66
351	54
354	55
357	51
360	62
X-Ray	40kV/44mA
Attenuator	open
DivSlit	1.0mm
SctSlit	2.0mm
RecSlit	2.0mm
Attenuator	
Start	0
Stop	360
Step	3
Speed	180
Offset	0
0	61
3	44
6	48
9	48
12	68
15	65
18	71
21	43
24	82
27	66
30	68
33	56
36	68
39	64
42	57
45	70
48	58
51	63
54	59
57	46
60	53
63	61
66	73
69	46
72	55
75	53
78	44
81	53
84	65
87	50
90	56
93	58
96	45
99	59
102	52
105	50
108	65
111	66
114	51
117	60
120	50
123	56
126	63
129	63
132	57
135	64
138	53
141	75
144	64
147	61
150	64
153	61
156	74
159	57
162	54
165	61
168	56
171	52
174	45
177	52
180	57
183	68
186	66
189	57
192	57
195	54
198	55
201	67
204	66
207	66
210	72
213	67
216	65
219	68
222	54
225	65
228	51
231	59
234	61
237	74
240	72
243	50
246	70
249	65
252	69
255	65
258	52
261	54
264	64
267	54
270	63
273	50
276	49
279	61
282	56
285	55
288	72
291	49
294	63
297	61
300	75
303	61
306	60
309	57
312	69
315	54
318	65
321	76
324	63
327	75
330	67
333	62
336	67
339	65
342	51
345	61
348	72
351	56
354	60
357	58
360	58
X-Ray	40kV/44mA
Attenuator	open
DivSlit	1.0mm
SctSlit	2.0mm
RecSlit	2.0mm
Attenuator	
Start	0
Stop	360
Step	3
Speed	180
Offset	0
0	59
3	56
6	51
9	61
12	51
15	57
18	36
21	61
24	62
27	73
30	71
33	39
36	58
39	50
42	60
45	62
48	57
51	68
54	66
57	59
60	56
63	56
66	52
69	49
72	57
75	39
78	56
81	48
84	55
87	54
90	52
93	62
96	65
99	53
102	63
105	56
108	56
111	49
114	48
117	59
120	41
123	44
126	65
129	72
132	43
135	54
138	67
141	69
144	66
147	62
150	58
153	66
156	68
159	68
162	46
165	66
168	55
171	49
174	56
177	61
180	59
183	59
186	58
189	67
192	50
195	64
198	64
201	45
204	57
207	71
210	76
213	63
216	65
219	81
222	67
225	62
228	68
231	51
234	74
237	54
240	66
243	67
246	71
249	50
252	54
255	47
258	72
261	50
264	54
267	50
270	52
273	56
276	50
279	62
282	60
285	41
288	43
291	57
294	63
297	49
300	84
303	57
306	54
309	56
312	68
315	65
318	73
321	67
324	64
327	60
330	76
333	86
336	63
339	72
342	73
345	61
348	54
351	57
354	60
357	41
360	59
X-Ray	40kV/44mA
Attenuator	open
DivSlit	1.0mm
SctSlit	2.0mm
RecSlit	2.0mm
Attenuator	
Start	0
Stop	360
Step	3
Speed	180
Offset	0
0	57
3	49
6	56
9	57
12	33
15	49
18	53
21	50
24	64
27	68
30	68
33	65
36	58
39	81
42	67
45	59
48	62
51	63
54	70
57	58
60	58
63	70
66	69
69	66
72	56
75	56
78	61
81	56
84	39
87	47
90	57
93	60
96	65
99	47
102	53
105	46
108	47
111	51
114	55
117	55
120	57
123	64
126	57
129	67
132	68
135	54
138	63
141	66
144	53
147	72
150	76
153	64
156	59
159	61
162	77
165	57
168	52
171	55
174	55
177	58
180	59
183	55
186	53
189	61
192	53
195	53
198	61
201	66
204	48
207	55
210	58
213	65
216	64
219	64
222	54
225	73
228	71
231	51
234	53
237	53
240	54
243	60
246	58
249	52
252	67
255	46
258	52
261	47
264	56
267	52
270	56
273	43
276	58
279	49
282	67
285	50
288	68
291	60
294	51
297	45
300	59
303	61
306	43
309	70
312	59
315	56
318	62
321	62
324	60
327	58
330	93
333	64
336	63
339	69
342	61
345	65
348	62
351	45
354	48
357	59
360	36
X-Ray	40kV/44mA
Attenuator	open
DivSlit	1.0mm
SctSlit	2.0mm
RecSlit	2.0mm
Attenuator	
Start	0
Stop	360
Step	3
Speed	180
Offset	0
0	65
3	63
6	42
9	63
12	49
15	51
18	50
21	66
24	69
27	55
30	72
33	62
36	61
39	72
42	66
45	62
48	73
51	46
54	69
57	66
60	55
63	57
66	69
69	61
72	54
75	74
78	46
81	47
84	46
87	63
90	61
93	63
96	43
99	54
102	61
105	56
108	57
111	52
114	70
117	63
120	65
123	62
126	69
129	45
132	61
135	67
138	70
141	55
144	69
147	50
150	66
153	68
156	59
159	58
162	59
165	68
168	66
171	45
174	46
177	45
180	43
183	58
186	56
189	55
192	65
195	46
198	54
201	64
204	63
207	49
210	56
213	68
216	57
219	65
222	67
225	63
228	71
231	65
234	52
237	76
240	75
243	75
246	56
249	47
252	49
255	57
258	61
261	66
264	55
267	45
270	52
273	43
276	57
279	58
282	57
285	58
288	53
291	51
294	50
297	50
300	56
303	56
306	52
309	63
312	68
315	59
318	74
321	63
324	73
327	79
330	57
333	82
336	66
339	58
342	76
345	63
348	49
351	49
354	52
357	56
360	52
X-Ray	40kV/44mA
Attenuator	open
DivSlit	1.0mm
SctSlit	2.0mm
RecSlit	2.0mm
Attenuator	
Start	0
Stop	360
Step	3
Speed	180
Offset	0
0	52
3	48
6	47
9	55
12	60
15	55
18	55
21	70
24	63
27	57
30	73
33	82
36	79
39	62
42	61
45	66
48	54
51	57
54	61
57	64
60	59
63	56
66	68
69	63
72	50
75	48
78	56
81	44
84	52
87	49
90	52
93	59
96	45
99	48
102	69
105	62
108	74
111	59
114	63
117	62
120	43
123	57
126	65
129	73
132	69
135	61
138	68
141	80
144	66
147	57
150	66
153	65
156	59
159	77
162	50
165	76
168	59
171	61
174	44
177	59
180	56
183	52
186	62
189	38
192	59
195	63
198	52
201	54
204	63
207	72
210	67
213	70
216	60
219	77
222	83
225	71
228	79
231	49
234	59
237	51
240	64
243	57
246	58
249	48
252	52
255	45
258	50
261	59
264	59
267	55
270	51
273	58
276	64
279	70
282	68
285	53
288	61
291	59
294	55
297	56
300	68
303	72
306	74
309	60
312	83
315	65
318	77
321	70
324	75
327	73
330	70
333	55
336	60
339	57
342	67
345	58
348	61
351	54
354	48
357	52
360	47
X-Ray	40kV/44mA
Attenuator	open
DivSlit	1.0mm
SctSlit	2.0mm
RecSlit	2.0mm
Attenuator	
Start	0
Stop	360
Step	3
Speed	180
Offset	0
0	52
3	67
6	54
9	73
12	50
15	48
18	55
21	57
24	50
27	57
30	73
33	61
36	77
39	85
42	81
45	75
48	64
51	70
54	55
57	62
60	77
63	61
66	58
69	58
72	52
75	66
78	70
81	51
84	70
87	69
90	53
93	75
96	48
99	67
102	60
105	67
108	57
111	54
114	58
117	54
120	62
123	66
126	68
129	78
132	63
135	67
138	70
141	71
144	79
147	68
150	58
153	70
156	68
159	64
162	57
165	60
168	63
171	57
174	61
177	47
180	40
183	66
186	47
189	49
192	55
195	51
198	53
201	67
204	49
207	52
210	89
213	66
216	69
219	71
222	85
225	58
228	60
231	69
234	59
237	63
240	62
243	45
246	56
249	55
252	55
255	57
258	56
261	51
264	72
267	40
270	62
273	57
276	48
279	43
282	50
285	71
288	61
291	64
294	62
297	57
300	53
303	78
306	63
309	59
312	68
315	66
318	70
321	71
324	57
327	65
330	70
333	65
336	69
339	65
342	62
345	60
348	74
351	52
354	66
357	58
360	65
X-Ray	40kV/44mA
Attenuator	open
DivSlit	1.0mm
SctSlit	2.0mm
RecSlit	2.0mm
Attenuator	
Start	0
Stop	360
Step	3
Speed	180
Offset	0
0	52
3	49
6	62
9	67
12	61
15	72
18	74
21	74
24	70
27	68
30	60
33	60
36	89
39	71
42	78
45	65
48	80
51	70
54	68
57	74
60	78
63	70
66	80
69	71
72	51
75	56
78	64
81	62
84	58
87	61
90	69
93	61
96	48
99	52
102	65
105	57
108	57
111	75
114	70
117	65
120	57
123	65
126	60
129	74
132	73
135	73
138	58
141	71
144	77
147	67
150	66
153	81
156	70
159	68
162	65
165	52
168	77
171	63
174	53
177	49
180	51
183	70
186	46
189	70
192	47
195	64
198	66
201	62
204	79
207	69
210	66
213	62
216	70
219	84
222	70
225	73
228	60
231	62
234	57
237	67
240	64
243	55
246	62
249	36
252	70
255	58
258	44
261	66
264	61
267	58
270	56
273	68
276	61
279	61
282	59
285	61
288	67
291	61
294	63
297	46
300	63
303	59
306	68
309	60
312	56
315	74
318	81
321	86
324	82
327	87
330	65
333	83
336	69
339	74
342	65
345	68
348	57
351	62
354	60
357	60
360	45
X-Ray	40kV/44mA
Attenuator	open
DivSlit	1.0mm
SctSlit	2.0mm
RecSlit	2.0mm
Attenuator	
Start	0
Stop	360
Step	3
Speed	180
Offset	0
0	59
3	56
6	61
9	66
12	67
15	79
18	52
21	52
24	72
27	78
30	79
33	79
36	77
39	79
42	76
45	63
48	78
51	85
54	73
57	93
60	53
63	74
66	64
69	67
72	59
75	61
78	58
81	58
84	63
87	69
90	47
93	71
96	58
99	67
102	62
105	56
108	60
111	70
114	77
117	64
120	70
123	62
126	69
129	77
132	90
135	87
138	86
141	95
144	78
147	80
150	86
153	69
156	71
159	75
162	63
165	57
168	59
171	80
174	71
177	62
180	66
183	65
186	72
189	70
192	64
195	60
198	59
201	76
204	67
207	73
210	74
213	77
216	99
219	77
222	60
225	70
228	76
231	61
234	65
237	78
240	59
243	57
246	55
249	59
252	66
255	66
258	64
261	57
264	66
267	61
270	54
273	70
276	57
279	58
282	68
285	58
288	50
291	54
294	68
297	65
300	64
303	69
306	69
309	73
312	65
315	81
318	74
321	90
324	64
327	78
330	88
333	76
336	73
339	77
342	56
345	63
348	55
351	58
354	58
357	65
360	64
X-Ray	40kV/44mA
Attenuator	open
DivSlit	1.0mm
SctSlit	2.0mm
RecSlit	2.0mm
Attenuator	
Start	0
Stop	360
Step	3
Speed	180
Offset	0
0	80
3	73
6	78
9	69
12	84
15	69
18	75
21	81
24	86
27	93
30	92
33	89
36	93
39	85
42	98
45	93
48	109
51	92
54	93
57	83
60	70
63	92
66	80
69	73
72	85
75	66
78	62
81	67
84	70
87	73
90	77
93	63
96	79
99	65
102	50
105	64
108	65
111	76
114	67
117	77
120	79
123	83
126	102
129	102
132	89
135	94
138	97
141	86
144	94
147	104
150	91
153	81
156	74
159	82
162	81
165	67
168	79
171	72
174	69
177	60
180	81
183	65
186	72
189	69
192	63
195	75
198	79
201	70
204	70
207	73
210	75
213	85
216	80
219	74
222	69
225	85
228	94
231	72
234	79
237	82
240	78
243	68
246	69
249	67
252	59
255	65
258	58
261	72
264	65
267	76
270	50
273	56
276	61
279	71
282	60
285	74
288	84
291	74
294	77
297	66
300	79
303	68
306	71
309	93
312	80
315	93
318	91
321	93
324	90
327	96
330	77
333	85
336	79
339	74
342	82
345	58
348	76
351	75
354	68
357	59
360	62
X-Ray	40kV/44mA
Attenuator	open
DivSlit	1.0mm
SctSlit	2.0mm
RecSlit	2.0mm
Attenuator	
Start	0
Stop	360
Step	3
Speed	180
Offset	0
0	95
3	94
6	80
9	88
12	107
15	77
18	83
21	96
24	92
27	91
30	90
33	98
36	90
39	114
42	97
45	120
48	121
51	114
54	113
57	107
60	83
63	120
66	105
69	80
72	71
75	59
78	68
81	79
84	76
87	66
90	69
93	74
96	72
99	70
102	59
105	75
108	57
111	75
114	77
117	75
120	100
123	111
126	101
129	108
132	125
135	116
138	128
141	116
144	121
147	120
150	111
153	79
156	95
159	96
162	87
165	85
168	86
171	100
174	83
177	79
180	93
183	82
186	85
189	80
192	65
195	76
198	86
201	88
204	78
207	77
210	74
213	99
216	93
219	89
222	87
225	88
228	109
231	86
234	96
237	86
240	85
243	69
246	72
249	74
252	73
255	60
258	59
261	86
264	56
267	74
270	59
273	67
276	59
279	53
282	68
285	54
288	73
291	71
294	83
297	55
300	68
303	104
306	75
309	107
312	79
315	96
318	94
321	116
324	109
327	104
330	93
333	84
336	83
339	70
342	68
345	87
348	59
351	70
354	88
357	83
360	95
X-Ray	40kV/44mA
Attenuator	open
DivSlit	1.0mm
SctSlit	2.0mm
RecSlit	2.0mm
Attenuator	
Start	0
Stop	360
Step	3
Speed	180
Offset	0
0	96
3	96
6	105
9	102
12	107
15	98
18	109
21	104
24	106
27	104
30	113
33	122
36	115
39	115
42	137
45	120
48	140
51	141
54	142
57	141
60	124
63	141
66	114
69	106
72	96
75	82
78	91
81	97
84	81
87	70
90	59
93	78
96	79
99	77
102	65
105	73
108	71
111	93
114	76
117	111
120	127
123	126
126	111
129	137
132	141
135	125
138	127
141	133
144	123
147	121
150	93
153	110
156	124
159	96
162	110
165	92
168	106
171	102
174	106
177	98
180	84
183	79
186	96
189	101
192	112
195	100
198	102
201	91
204	89
207	91
210	99
213	120
216	103
219	108
222	115
225	119
228	119
231	100
234	114
237	117
240	100
243	80
246	80
249	61
252	64
255	65
258	80
261	77
264	71
267	61
270	66
273	64
276	78
279	68
282	76
285	65
288	79
291	73
294	71
297	77
300	96
303	117
306	87
309	102
312	108
315	115
318	139
321	108
324	110
327	93
330	110
333	109
336	106
339	99
342	82
345	99
348	99
351	94
354	94
357	85
360	95
X-Ray	40kV/44mA
Attenuator	open
DivSlit	1.0mm
SctSlit	2.0mm
RecSlit	2.0mm
Attenuator	
Start	0
Stop	360
Step	3
Speed	180
Offset	0
0	125
3	106
6	134
9	120
12	113
15	107
18	122
21	117
24	113
27	112
30	101
33	107
36	120
39	125
42	141
45	158
48	157
51	140
54	148
57	164
60	165
63	144
66	131
69	108
72	134
75	107
78	102
81	116
84	91
87	82
90	70
93	79
96	83
99	107
102	110
105	90
108	126
111	102
114	143
117	118
120	161
123	148
126	164
129	158
132	137
135	142
138	124
141	119
144	118
147	124
150	121
153	127
156	111
159	119
162	117
165	134
168	104
171	116
174	118
177	110
180	85
183	118
186	122
189	115
192	118
195	104
198	129
201	94
204	98
207	87
210	118
213	121
216	105
219	110
222	106
225	119
228	131
231	118
234	156
237	121
240	128
243	95
246	91
249	93
252	79
255	72
258	76
261	71
264	88
267	77
270	81
273	61
276	80
279	70
282	71
285	74
288	104
291	78
294	98
297	87
300	94
303	130
306	125
309	136
312	165
315	126
318	123
321	120
324	115
327	124
330	109
333	100
336	90
339	122
342	119
345	87
348	99
351	121
354	122
357	114
360	120
X-Ray	40kV/44mA
Attenuator	open
DivSlit	1.0mm
SctSlit	2.0mm
RecSlit	2.0mm
Attenuator	
Start	0
Stop	360
Step	3
Speed	180
Offset	0
0	122
3	118
6	127
9	108
12	136
15	118
18	120
21	113
24	121
27	128
30	134
33	125
36	106
39	108
42	125
45	121
48	131
51	126
54	169
57	144
60	145
63	154
66	150
69	145
72	125
75	125
78	127
81	108
84	120
87	86
90	103
93	100
96	97
99	90
102	118
105	115
108	125
111	116
114	121
117	132
120	154
123	140
126	143
129	131
132	124
135	136
138	121
141	100
144	114
147	122
150	126
153	118
156	124
159	104
162	131
165	129
168	115
171	120
174	126
177	125
180	120
183	117
186	124
189	120
192	109
195	116
198	118
201	95
204	125
207	119
210	109
213	119
216	136
219	119
222	113
225	132
228	158
231	152
234	150
237	145
240	142
243	139
246	119
249	129
252	103
255	81
258	70
261	90
264	85
267	89
270	80
273	69
276	87
279	105
282	97
285	100
288	114
291	100
294	106
297	121
300	125
303	123
306	156
309	153
312	133
315	156
318	158
321	127
324	107
327	112
330	108
333	102
336	105
339	110
342	87
345	141
348	92
351	126
354	124
357	128
360	124
X-Ray	40kV/44mA
Attenuator	open
DivSlit	1.0mm
SctSlit	2.0mm
RecSlit	2.0mm
Attenuator	
Start	0
Stop	360
Step	3
Speed	180
Offset	0
0	141
3	134
6	136
9	151
12	138
15	153
18	120
21	155
24	121
27	111
30	105
33	104
36	127
39	105
42	121
45	114
48	112
51	117
54	109
57	127
60	135
63	133
66	142
69	119
72	149
75	134
78	124
81	150
84	140
87	128
90	91
93	102
96	117
99	104
102	101
105	166
108	144
111	123
114	131
117	124
120	106
123	101
126	121
129	95
132	100
135	122
138	124
141	101
144	112
147	100
150	135
153	115
156	123
159	136
162	129
165	129
168	132
171	123
174	159
177	118
180	130
183	144
186	120
189	123
192	115
195	125
198	106
201	85
204	102
207	88
210	102
213	93
216	101
219	132
222	122
225	144
228	157
231	152
234	155
237	158
240	166
243	153
246	141
249	156
252	134
255	116
258	117
261	110
264	112
267	106
270	88
273	100
276	112
279	117
282	101
285	101
288	104
291	140
294	120
297	145
300	144
303	146
306	155
309	134
312	155
315	136
318	123
321	114
324	119
327	105
330	117
333	110
336	102
339	102
342	123
345	121
348	124
351	126
354	146
357	164
360	130
X-Ray	40kV/44mA
Attenuator	open
DivSlit	1.0mm
SctSlit	2.0mm
RecSlit	2.0mm
Attenuator	
Start	0
Stop	360
Step	3
Speed	180
Offset	0
0	125
3	142
6	167
9	141
12	143
15	136
18	133
21	118
24	106
27	113
30	115
33	101
36	110
39	108
42	112
45	78
48	83
51	113
54	78
57	94
60	125
63	86
66	88
69	130
72	104
75	115
78	135
81	121
84	127
87	96
90	110
93	82
96	124
99	133
102	108
105	105
108	115
111	113
114	82
117	117
120	110
123	85
126	110
129	93
132	90
135	103
138	98
141	94
144	96
147	107
150	93
153	125
156	116
159	106
162	113
165	121
168	140
171	152
174	125
177	143
180	150
183	123
186	124
189	139
192	131
195	112
198	101
201	118
204	99
207	106
210	84
213	102
216	91
219	122
222	116
225	102
228	119
231	106
234	141
237	147
240	140
243	157
246	159
249	151
252	133
255	141
258	130
261	125
264	139
267	140
270	133
273	147
276	126
279	128
282	138
285	141
288	154
291	141
294	141
297	156
300	163
303	137
306	120
309	133
312	111
315	104
318	113
321	96
324	91
327	97
330	100
333	94
336	125
339	115
342	109
345	116
348	109
351	132
354	118
357	153
360	142
X-Ray	40kV/44mA
Attenuator	open
DivSlit	1.0mm
SctSlit	2.0mm
RecSlit	2.0mm
Attenuator	
Start	0
Stop	360
Step	3
Speed	180
Offset	0
0	155
3	159
6	169
9	169
12	164
15	133
18	142
21	140
24	110
27	129
30	116
33	100
36	101
39	108
42	87
45	103
48	81
51	101
54	89
57	86
60	70
63	79
66	82
69	78
72	95
75	100
78	80
81	90
84	99
87	80
90	103
93	87
96	76
99	98
102	95
105	85
108	79
111	76
114	73
117	81
120	89
123	73
126	69
129	71
132	80
135	98
138	94
141	94
144	88
147	108
150	99
153	112
156	129
159	127
162	120
165	160
168	131
171	131
174	142
177	131
180	150
183	139
186	144
189	139
192	112
195	120
198	132
201	108
204	123
207	85
210	96
213	90
216	86
219	91
222	90
225	91
228	124
231	105
234	116
237	121
240	135
243	131
246	131
249	144
252	123
255	135
258	137
261	115
264	132
267	127
270	126
273	115
276	137
279	141
282	138
285	123
288	136
291	133
294	146
297	129
300	122
303	101
306	124
309	103
312	88
315	88
318	98
321	96
324	99
327	94
330	97
333	95
336	86
339	110
342	105
345	116
348	118
351	118
354	129
357	136
360	151
X-Ray	40kV/44mA
Attenuator	open
DivSlit	1.0mm
SctSlit	2.0mm
RecSlit	2.0mm
Attenuator	
Start	0
Stop	360
Step	3
Speed	180
Offset	0
0	124
3	160
6	163
9	167
12	155
15	145
18	144
21	127
24	142
27	116
30	116
33	94
36	95
39	89
42	91
45	83
48	70
51	73
54	83
57	70
60	95
63	90
66	64
69	89
72	86
75	76
78	71
81	80
84	68
87	87
90	82
93	75
96	64
99	74
102	83
105	67
108	74
111	63
114	71
117	77
120	80
123	87
126	80
129	90
132	85
135	79
138	98
141	101
144	93
147	109
150	112
153	125
156	137
159	139
162	139
165	151
168	163
171	178
174	150
177	154
180	161
183	118
186	156
189	147
192	145
195	119
198	118
201	92
204	100
207	89
210	94
213	74
216	78
219	88
222	72
225	97
228	82
231	83
234	108
237	105
240	94
243	115
246	91
249	112
252	130
255	115
258	95
261	138
264	127
267	104
270	111
273	119
276	133
279	129
282	146
285	108
288	124
291	127
294	118
297	106
300	95
303	96
306	121
309	93
312	92
315	101
318	92
321	88
324	100
327	80
330	93
333	101
336	111
339	118
342	109
345	140
348	107
351	131
354	122
357	141
360	168
X-Ray	40kV/44mA
Attenuator	open
DivSlit	1.0mm
SctSlit	2.0mm
RecSlit	2.0mm
Attenuator	
Start	0
Stop	360
Step	3
Speed	180
Offset	0
0	179
3	179
6	173
9	167
12	180
15	180
18	151
21	137
24	143
27	130
30	141
33	112
36	109
39	115
42	98
45	107
48	100
51	94
54	82
57	93
60	95
63	113
66	83
69	76
72	80
75	71
78	76
81	75
84	86
87	74
90	71
93	77
96	64
99	71
102	57
105	89
108	72
111	73
114	99
117	94
120	76
123	89
126	95
129	104
132	95
135	96
138	87
141	107
144	122
147	110
150	123
153	116
156	123
159	145
162	130
165	173
168	157
171	173
174	171
177	203
180	179
183	139
186	164
189	146
192	141
195	138
198	115
201	105
204	108
207	88
210	86
213	80
216	101
219	77
222	73
225	71
228	87
231	87
234	69
237	96
240	98
243	91
246	89
249	99
252	94
255	104
258	91
261	101
264	100
267	79
270	99
273	103
276	104
279	93
282	110
285	111
288	86
291	99
294	97
297	107
300	85
303	74
306	98
309	96
312	76
315	98
318	84
321	96
324	87
327	96
330	115
333	114
336	97
339	127
342	105
345	122
348	117
351	144
354	148
357	167
360	172
X-Ray	40kV/44mA
Attenuator	open
DivSlit	1.0mm
SctSlit	2.0mm
RecSlit	2.0mm
Attenuator	
Start	0
Stop	360
Step	3
Speed	180
Offset	0
0	148
3	181
6	167
9	190
12	186
15	175
18	155
21	179
24	148
27	148
30	124
33	130
36	117
39	112
42	111
45	114
48	104
51	110
54	106
57	83
60	96
63	81
66	78
69	70
72	91
75	65
78	96
81	78
84	86
87	77
90	74
93	84
96	85
99	74
102	71
105	81
108	72
111	81
114	105
117	100
120	92
123	93
126	85
129	114
132	93
135	104
138	106
141	119
144	109
147	120
150	143
153	170
156	142
159	156
162	150
165	163
168	180
171	152
174	167
177	175
180	175
183	185
186	154
189	148
192	143
195	144
198	126
201	145
204	123
207	112
210	117
213	109
216	98
219	91
222	83
225	112
228	110
231	75
234	85
237	81
240	89
243	89
246	75
249	79
252	95
255	85
258	94
261	84
264	75
267	79
270	88
273	92
276	100
279	91
282	91
285	113
288	96
291	81
294	78
297	78
300	92
303	105
306	68
309	98
312	97
315	100
318	108
321	103
324	102
327	106
330	110
333	111
336	118
339	119
342	125
345	132
348	144
351	142
354	145
357	170
360	168
X-Ray	40kV/44mA
Attenuator	open
DivSlit	1.0mm
SctSlit	2.0mm
RecSlit	2.0mm
Attenuator	
Start	0
Stop	360
Step	3
Speed	180
Offset	0
0	192
3	174
6	179
9	160
12	192
15	175
18	163
21	188
24	177
27	158
30	164
33	148
36	102
39	118
42	106
45	123
48	106
51	108
54	117
57	114
60	102
63	110
66	94
69	100
72	108
75	100
78	86
81	104
84	81
87	103
90	92
93	89
96	92
99	86
102	89
105	85
108	86
111	102
114	88
117	96
120	96
123	107
126	119
129	94
132	125
135	125
138	131
141	128
144	140
147	153
150	165
153	166
156	174
159	157
162	165
165	181
168	172
171	175
174	175
177	167
180	161
183	162
186	133
189	159
192	151
195	134
198	135
201	138
204	126
207	117
210	128
213	115
216	100
219	100
222	91
225	97
228	98
231	117
234	93
237	84
240	85
243	86
246	100
249	88
252	87
255	77
258	91
261	102
264	98
267	102
270	88
273	92
276	95
279	97
282	88
285	91
288	83
291	86
294	97
297	88
300	93
303	118
306	93
309	99
312	96
315	97
318	97
321	106
324	103
327	114
330	120
333	120
336	111
339	147
342	154
345	158
348	156
351	163
354	155
357	136
360	165
X-Ray	40kV/44mA
Attenuator	open
DivSlit	1.0mm
SctSlit	2.0mm
RecSlit	2.0mm
Attenuator	
Start	0
Stop	360
Step	3
Speed	180
Offset	0
0	171
3	173
6	181
9	170
12	184
15	178
18	156
21	158
24	150
27	179
30	164
33	150
36	140
39	149
42	153
45	147
48	133
51	147
54	140
57	122
60	111
63	147
66	103
69	124
72	123
75	112
78	117
81	107
84	112
87	122
90	103
93	92
96	94
99	123
102	105
105	91
108	104
111	119
114	101
117	127
120	131
123	130
126	127
129	142
132	131
135	147
138	132
141	146
144	147
147	161
150	181
153	195
156	167
159	158
162	174
165	188
168	166
171	138
174	173
177	164
180	164
183	169
186	152
189	164
192	135
195	139
198	144
201	140
204	129
207	127
210	115
213	113
216	114
219	124
222	128
225	108
228	105
231	103
234	102
237	102
240	106
243	106
246	85
249	94
252	95
255	95
258	90
261	97
264	105
267	93
270	95
273	90
276	114
279	100
282	93
285	85
288	100
291	83
294	131
297	110
300	124
303	116
306	101
309	104
312	108
315	110
318	121
321	129
324	129
327	150
330	130
333	123
336	132
339	171
342	171
345	176
348	157
351	181
354	182
357	199
360	185
X-Ray	40kV/44mA
Attenuator	open
DivSlit	1.0mm
SctSlit	2.0mm
RecSlit	2.0mm
Attenuator	
Start	0
Stop	360
Step	3
Speed	180
Offset	0
0	163
3	157
6	180
9	164
12	175
15	185
18	184
21	190
24	179
27	165
30	155
33	178
36	174
39	155
42	179
45	170
48	175
51	166
54	165
57	159
60	168
63	155
66	157
69	147
72	148
75	128
78	153
81	115
84	131
87	126
90	134
93	147
96	130
99	130
102	117
105	146
108	150
111	127
114	157
117	137
120	140
123	149
126	144
129	155
132	182
135	146
138	168
141	171
144	171
147	166
150	147
153	171
156	158
159	180
162	166
165	189
168	152
171	165
174	209
177	192
180	156
183	165
186	167
189	148
192	141
195	158
198	158
201	120
204	138
207	149
210	158
213	158
216	148
219	144
222	125
225	130
228	129
231	133
234	126
237	125
240	103
243	130
246	133
249	110
252	121
255	97
258	109
261	125
264	99
267	110
270	112
273	117
276	116
279	123
282	125
285	123
288	147
291	106
294	122
297	117
300	139
303	128
306	149
309	133
312	140
315	125
318	110
321	149
324	135
327	130
330	152
333	146
336	172
339	159
342	184
345	179
348	185
351	174
354	159
357	151
360	171
X-Ray	40kV/44mA
Attenuator	open
DivSlit	1.0mm
SctSlit	2.0mm
RecSlit	2.0mm
Attenuator	
Start	0
Stop	360
Step	3
Speed	180
Offset	0
0	202
3	189
6	175
9	204
12	220
15	195
18	183
21	173
24	202
27	179
30	184
33	187
36	177
39	193
42	183
45	175
48	187
51	203
54	202
57	196
60	199
63	183
66	197
69	184
72	172
75	159
78	193
81	183
84	156
87	158
90	170
93	173
96	162
99	165
102	205
105	174
108	160
111	182
114	198
117	169
120	192
123	177
126	173
129	182
132	189
135	177
138	188
141	227
144	193
147	190
150	186
153	194
156	188
159	194
162	189
165	190
168	220
171	192
174	180
177	195
180	174
183	190
186	182
189	165
192	181
195	173
198	169
201	165
204	154
207	173
210	182
213	165
216	168
219	172
222	187
225	144
228	152
231	143
234	195
237	146
240	140
243	167
246	171
249	156
252	152
255	156
258	148
261	162
264	149
267	150
270	132
273	135
276	144
279	156
282	140
285	131
288	158
291	179
294	166
297	151
300	170
303	173
306	169
309	211
312	159
315	165
318	161
321	207
324	189
327	195
330	185
333	182
336	167
339	171
342	176
345	163
348	185
351	222
354	196
357	191
360	167
X-Ray	40kV/44mA
Attenuator	open
DivSlit	1.0mm
SctSlit	2.0mm
RecSlit	2.0mm
Attenuator	
Start	0
Stop	360
Step	3
Speed	180
Offset	0
0	225
3	226
6	201
9	246
12	233
15	232
18	242
21	228
24	266
27	232
30	199
33	245
36	206
39	236
42	204
45	265
48	210
51	247
54	236
57	192
60	222
63	258
66	231
69	224
72	227
75	246
78	228
81	228
84	200
87	218
90	205
93	179
96	221
99	201
102	193
105	219
108	226
111	208
114	230
117	225
120	251
123	231
126	226
129	254
132	239
135	234
138	225
141	213
144	232
147	257
150	242
153	196
156	221
159	215
162	232
165	199
168	184
171	226
174	212
177	209
180	274
183	258
186	222
189	241
192	256
195	191
198	194
201	205
204	212
207	229
210	223
213	246
216	225
219	214
222	236
225	235
228	221
231	206
234	218
237	206
240	201
243	229
246	185
249	199
252	198
255	184
258	204
261	211
264	213
267	205
270	233
273	217
276	207
279	201
282	204
285	205
288	224
291	215
294	208
297	201
300	224
303	242
306	235
309	208
312	248
315	234
318	253
321	227
324	215
327	220
330	212
333	221
336	225
339	205
342	224
345	229
348	247
351	212
354	230
357	195
360	210
X-Ray	40kV/44mA
Attenuator	open
DivSlit	1.0mm
SctSlit	2.0mm
RecSlit	2.0mm
Attenuator	
Start	0
Stop	360
Step	3
Speed	180
Offset	0
0	252
3	215
6	248
9	262
12	253
15	262
18	246
21	280
24	251
27	258
30	243
33	270
36	262
39	255
42	276
45	252
48	259
51	244
54	201
57	232
60	254
63	280
66	257
69	247
72	223
75	230
78	241
81	238
84	210
87	227
90	236
93	201
96	215
99	240
102	218
105	222
108	238
111	235
114	235
117	255
120	259
123	223
126	220
129	239
132	208
135	239
138	231
141	220
144	226
147	235
150	243
153	232
156	230
159	204
162	240
165	249
168	232
171	233
174	238
177	226
180	256
183	249
186	274
189	262
192	237
195	223
198	244
201	226
204	223
207	235
210	267
213	261
216	284
219	257
222	276
225	268
228	227
231	253
234	233
237	275
240	289
243	245
246	243
249	266
252	291
255	234
258	253
261	263
264	244
267	243
270	252
273	271
276	259
279	225
282	249
285	230
288	247
291	231
294	299
297	259
300	243
303	291
306	280
309	306
312	294
315	271
318	258
321	247
324	253
327	231
330	242
333	264
336	269
339	261
342	241
345	276
348	317
351	277
354	244
357	250
360	248
